# #Pole, pwv = 321, elev = 50
# # Frequency(GHz)   T_b (K)
1.000000000000000000e+00 1.247733999999999899e+00
1.199999999999999956e+00 1.289018999999999915e+00
1.399999999999999911e+00 1.317609000000000030e+00
1.600000000000000089e+00 1.338918000000000053e+00
1.800000000000000044e+00 1.355817999999999968e+00
2.000000000000000000e+00 1.369933000000000067e+00
2.200000000000000178e+00 1.382230000000000070e+00
2.399999999999999911e+00 1.393313000000000024e+00
2.600000000000000089e+00 1.403574000000000099e+00
2.799999999999999822e+00 1.413262000000000018e+00
3.000000000000000000e+00 1.422574999999999923e+00
3.200000000000000178e+00 1.431634999999999991e+00
3.399999999999999911e+00 1.440536000000000039e+00
3.600000000000000089e+00 1.449346000000000023e+00
3.799999999999999822e+00 1.458118000000000025e+00
4.000000000000000000e+00 1.466892000000000085e+00
4.200000000000000178e+00 1.475697999999999954e+00
4.400000000000000355e+00 1.484563000000000077e+00
4.599999999999999645e+00 1.493506000000000000e+00
4.799999999999999822e+00 1.502544000000000102e+00
5.000000000000000000e+00 1.511703000000000019e+00
5.200000000000000178e+00 1.520950000000000024e+00
5.400000000000000355e+00 1.530332999999999943e+00
5.599999999999999645e+00 1.539859000000000089e+00
5.799999999999999822e+00 1.549493000000000009e+00
6.000000000000000000e+00 1.559260000000000090e+00
6.200000000000000178e+00 1.569175999999999904e+00
6.400000000000000355e+00 1.579245000000000010e+00
6.599999999999999645e+00 1.589469000000000021e+00
6.799999999999999822e+00 1.599860000000000060e+00
7.000000000000000000e+00 1.610419999999999963e+00
7.200000000000000178e+00 1.621156000000000041e+00
7.400000000000000355e+00 1.632073000000000107e+00
7.599999999999999645e+00 1.643175999999999970e+00
7.799999999999999822e+00 1.654470000000000107e+00
8.000000000000000000e+00 1.665961999999999943e+00
8.199999999999999289e+00 1.677661000000000069e+00
8.400000000000000355e+00 1.689578999999999942e+00
8.599999999999999645e+00 1.701740000000000030e+00
8.800000000000000711e+00 1.714198000000000111e+00
9.000000000000000000e+00 1.727216000000000085e+00
9.199999999999999289e+00 1.749244000000000021e+00
9.400000000000000355e+00 1.752998000000000056e+00
9.599999999999999645e+00 1.765845000000000109e+00
9.800000000000000711e+00 1.779436999999999935e+00
1.000000000000000000e+01 1.794013999999999998e+00
1.019999999999999929e+01 1.815015000000000045e+00
1.040000000000000036e+01 1.822608000000000006e+00
1.059999999999999964e+01 1.835930999999999980e+00
1.080000000000000071e+01 1.850359000000000087e+00
1.100000000000000000e+01 1.868678000000000061e+00
1.119999999999999929e+01 1.881337999999999955e+00
1.140000000000000036e+01 1.893887000000000098e+00
1.159999999999999964e+01 1.908400000000000096e+00
1.180000000000000071e+01 1.923578000000000010e+00
1.200000000000000000e+01 1.939181999999999961e+00
1.219999999999999929e+01 1.955108999999999986e+00
1.240000000000000036e+01 1.971360000000000001e+00
1.259999999999999964e+01 1.987932000000000032e+00
1.280000000000000071e+01 2.004776999999999809e+00
1.300000000000000000e+01 2.021945999999999799e+00
1.319999999999999929e+01 2.039429000000000158e+00
1.340000000000000036e+01 2.057233000000000089e+00
1.359999999999999964e+01 2.075366999999999962e+00
1.380000000000000071e+01 2.093834000000000195e+00
1.400000000000000000e+01 2.112671000000000188e+00
1.419999999999999929e+01 2.131911999999999807e+00
1.440000000000000036e+01 2.151651000000000202e+00
1.459999999999999964e+01 2.172206000000000081e+00
1.480000000000000071e+01 2.196234000000000020e+00
1.500000000000000000e+01 2.214525000000000077e+00
1.519999999999999929e+01 2.233922999999999881e+00
1.540000000000000036e+01 2.255025999999999975e+00
1.559999999999999964e+01 2.276936000000000071e+00
1.580000000000000071e+01 2.299602000000000146e+00
1.600000000000000000e+01 2.323582000000000036e+00
1.619999999999999929e+01 2.350718000000000085e+00
1.639999999999999858e+01 2.370559999999999778e+00
1.660000000000000142e+01 2.394623999999999864e+00
1.680000000000000071e+01 2.419804000000000066e+00
1.700000000000000000e+01 2.445751000000000008e+00
1.719999999999999929e+01 2.472560999999999787e+00
1.739999999999999858e+01 2.500246000000000191e+00
1.760000000000000142e+01 2.528878999999999877e+00
1.780000000000000071e+01 2.558571000000000151e+00
1.800000000000000000e+01 2.589364000000000221e+00
1.819999999999999929e+01 2.621452000000000115e+00
1.839999999999999858e+01 2.654983000000000093e+00
1.860000000000000142e+01 2.690148000000000206e+00
1.880000000000000071e+01 2.727154000000000078e+00
1.900000000000000000e+01 2.766281000000000212e+00
1.919999999999999929e+01 2.807841999999999949e+00
1.939999999999999858e+01 2.852225999999999928e+00
1.960000000000000142e+01 2.899884999999999824e+00
1.980000000000000071e+01 2.951347999999999860e+00
2.000000000000000000e+01 3.007235000000000102e+00
2.019999999999999929e+01 3.068224999999999980e+00
2.039999999999999858e+01 3.135145000000000071e+00
2.060000000000000142e+01 3.208477999999999941e+00
2.080000000000000071e+01 3.289076000000000111e+00
2.100000000000000000e+01 3.377348000000000017e+00
2.119999999999999929e+01 3.473046000000000078e+00
2.139999999999999858e+01 3.574924999999999908e+00
2.160000000000000142e+01 3.680289000000000144e+00
2.180000000000000071e+01 3.784949000000000119e+00
2.200000000000000000e+01 3.885517000000000110e+00
2.219999999999999929e+01 4.018736999999999782e+00
2.239999999999999858e+01 3.998987000000000069e+00
2.260000000000000142e+01 3.989980000000000082e+00
2.280000000000000071e+01 3.974695000000000089e+00
2.300000000000000000e+01 3.953088999999999853e+00
2.319999999999999929e+01 3.929812999999999779e+00
2.339999999999999858e+01 3.908949999999999925e+00
2.360000000000000142e+01 3.894047000000000036e+00
2.380000000000000071e+01 3.895620999999999778e+00
2.400000000000000000e+01 3.880274000000000001e+00
2.419999999999999929e+01 3.873947999999999947e+00
2.439999999999999858e+01 3.877435999999999883e+00
2.460000000000000142e+01 3.887073000000000000e+00
2.480000000000000071e+01 3.901825000000000099e+00
2.500000000000000000e+01 3.921349999999999891e+00
2.519999999999999929e+01 3.944846000000000075e+00
2.539999999999999858e+01 3.971350000000000158e+00
2.560000000000000142e+01 4.009574999999999889e+00
2.580000000000000071e+01 4.032408000000000214e+00
2.600000000000000000e+01 4.062132000000000076e+00
2.619999999999999929e+01 4.096795000000000186e+00
2.639999999999999858e+01 4.134209000000000245e+00
2.660000000000000142e+01 4.173823999999999756e+00
2.680000000000000071e+01 4.215410000000000323e+00
2.700000000000000000e+01 4.258783000000000207e+00
2.719999999999999929e+01 4.303912999999999656e+00
2.739999999999999858e+01 4.351091000000000264e+00
2.760000000000000142e+01 4.399346000000000423e+00
2.780000000000000071e+01 4.449455999999999634e+00
2.800000000000000000e+01 4.500537999999999705e+00
2.819999999999999929e+01 4.553194000000000408e+00
2.839999999999999858e+01 4.607930999999999777e+00
2.860000000000000142e+01 4.664977999999999625e+00
2.880000000000000071e+01 4.726747999999999728e+00
2.900000000000000000e+01 4.799698000000000242e+00
2.919999999999999929e+01 4.843890000000000029e+00
2.939999999999999858e+01 4.904173000000000116e+00
2.960000000000000142e+01 4.969070000000000320e+00
2.980000000000000071e+01 5.040559000000000012e+00
3.000000000000000000e+01 5.142801999999999651e+00
3.019999999999999929e+01 5.220545000000000435e+00
3.039999999999999858e+01 5.248478000000000421e+00
3.060000000000000142e+01 5.314833000000000141e+00
3.080000000000000071e+01 5.376983000000000068e+00
3.100000000000000000e+01 5.447878000000000220e+00
3.119999999999999929e+01 5.522028999999999854e+00
3.139999999999999858e+01 5.598499000000000336e+00
3.160000000000000142e+01 5.677044999999999675e+00
3.180000000000000071e+01 5.757598999999999911e+00
3.200000000000000000e+01 5.840167000000000108e+00
3.220000000000000284e+01 5.924657999999999980e+00
3.239999999999999858e+01 6.011066999999999716e+00
3.260000000000000142e+01 6.099648000000000181e+00
3.279999999999999716e+01 6.190344999999999764e+00
3.300000000000000000e+01 6.283038000000000345e+00
3.320000000000000284e+01 6.377996999999999694e+00
3.339999999999999858e+01 6.475285999999999653e+00
3.360000000000000142e+01 6.574931000000000303e+00
3.379999999999999716e+01 6.676874999999999893e+00
3.400000000000000000e+01 6.781367000000000367e+00
3.420000000000000284e+01 6.888435999999999559e+00
3.439999999999999858e+01 6.998143999999999920e+00
3.460000000000000142e+01 7.110628000000000171e+00
3.479999999999999716e+01 7.226058000000000092e+00
3.500000000000000000e+01 7.344491999999999798e+00
3.520000000000000284e+01 7.465754999999999697e+00
3.539999999999999858e+01 7.590555000000000163e+00
3.560000000000000142e+01 7.719479999999999897e+00
3.579999999999999716e+01 7.854766999999999832e+00
3.600000000000000000e+01 8.027926000000000784e+00
3.620000000000000284e+01 8.128854000000000468e+00
3.639999999999999858e+01 8.263616999999999990e+00
3.660000000000000142e+01 8.406762000000000512e+00
3.679999999999999716e+01 8.555104000000000042e+00
3.700000000000000000e+01 8.708265000000000811e+00
3.720000000000000284e+01 8.866533999999999693e+00
3.739999999999999858e+01 9.031055999999999528e+00
3.760000000000000142e+01 9.206284999999999386e+00
3.779999999999999716e+01 9.441254000000000701e+00
3.800000000000000000e+01 9.559319999999999595e+00
3.820000000000000284e+01 9.724866999999999706e+00
3.839999999999999858e+01 9.905782999999999561e+00
3.860000000000000142e+01 1.009477000000000046e+01
3.879999999999999716e+01 1.029048000000000052e+01
3.900000000000000000e+01 1.049281000000000041e+01
3.920000000000000284e+01 1.070190999999999981e+01
3.939999999999999858e+01 1.092019999999999946e+01
3.960000000000000142e+01 1.113791999999999938e+01
3.979999999999999716e+01 1.136514000000000024e+01
4.000000000000000000e+01 1.160036000000000023e+01
4.020000000000000284e+01 1.184328999999999965e+01
4.039999999999999858e+01 1.209412999999999982e+01
4.060000000000000142e+01 1.235318000000000005e+01
4.079999999999999716e+01 1.262078999999999951e+01
4.100000000000000000e+01 1.289722000000000079e+01
4.120000000000000284e+01 1.318300999999999945e+01
4.139999999999999858e+01 1.347869000000000028e+01
4.160000000000000142e+01 1.378443000000000040e+01
4.179999999999999716e+01 1.410110000000000063e+01
4.200000000000000000e+01 1.442914999999999992e+01
4.220000000000000284e+01 1.476917000000000080e+01
4.239999999999999858e+01 1.512288000000000032e+01
4.260000000000000142e+01 1.549244000000000021e+01
4.279999999999999716e+01 1.590240000000000009e+01
4.300000000000000000e+01 1.626777999999999835e+01
4.320000000000000284e+01 1.666985000000000028e+01
4.339999999999999858e+01 1.709648999999999930e+01
4.360000000000000142e+01 1.757694000000000045e+01
4.379999999999999716e+01 1.800372000000000128e+01
4.400000000000000000e+01 1.845886000000000138e+01
4.420000000000000284e+01 1.894629000000000119e+01
4.439999999999999858e+01 1.945797999999999917e+01
4.460000000000000142e+01 1.999380999999999986e+01
4.479999999999999716e+01 2.056024000000000029e+01
4.500000000000000000e+01 2.113559000000000054e+01
4.520000000000000284e+01 2.173638000000000048e+01
4.539999999999999858e+01 2.236828999999999823e+01
4.560000000000000142e+01 2.302939999999999898e+01
4.579999999999999716e+01 2.372110999999999947e+01
4.600000000000000000e+01 2.444528999999999996e+01
4.620000000000000284e+01 2.520357999999999876e+01
4.639999999999999858e+01 2.599815999999999860e+01
4.660000000000000142e+01 2.683173999999999992e+01
4.679999999999999716e+01 2.770672000000000068e+01
4.700000000000000000e+01 2.862590000000000146e+01
4.720000000000000284e+01 2.959247999999999834e+01
4.739999999999999858e+01 3.060982999999999876e+01
4.760000000000000142e+01 3.168160999999999916e+01
4.779999999999999716e+01 3.281192000000000064e+01
4.800000000000000000e+01 3.400524999999999665e+01
4.820000000000000284e+01 3.526657000000000153e+01
4.839999999999999858e+01 3.660146000000000299e+01
4.860000000000000142e+01 3.801574999999999704e+01
4.879999999999999716e+01 3.951673999999999864e+01
4.900000000000000000e+01 4.111135999999999768e+01
4.920000000000000284e+01 4.280895999999999901e+01
4.939999999999999858e+01 4.461986999999999881e+01
4.960000000000000142e+01 4.655438999999999794e+01
4.979999999999999716e+01 4.862841000000000236e+01
5.000000000000000000e+01 5.087228999999999957e+01
5.020000000000000284e+01 5.325596999999999781e+01
5.039999999999999858e+01 5.583713000000000193e+01
5.060000000000000142e+01 5.863452000000000197e+01
5.079999999999999716e+01 6.169275999999999982e+01
5.100000000000000000e+01 6.514750999999999692e+01
5.120000000000000284e+01 6.873342999999999847e+01
5.139999999999999858e+01 7.287476999999999805e+01
5.160000000000000142e+01 7.744634000000000640e+01
5.179999999999999716e+01 8.253620999999999697e+01
5.200000000000000000e+01 8.904876000000000147e+01
5.220000000000000284e+01 9.487233000000000516e+01
5.239999999999999858e+01 1.025268999999999977e+02
5.260000000000000142e+01 1.116266999999999996e+02
5.279999999999999716e+01 1.202092999999999989e+02
5.300000000000000000e+01 1.326752999999999929e+02
5.320000000000000284e+01 1.431422000000000025e+02
5.339999999999999858e+01 1.556042999999999950e+02
5.360000000000000142e+01 1.831711999999999989e+02
5.379999999999999716e+01 1.818555000000000064e+02
5.400000000000000000e+01 1.962581000000000131e+02
5.420000000000000284e+01 2.092165999999999997e+02
5.439999999999999858e+01 2.159801999999999964e+02
5.460000000000000142e+01 2.257580000000000098e+02
5.479999999999999716e+01 2.295631999999999948e+02
5.500000000000000000e+01 2.325390999999999906e+02
5.520000000000000284e+01 2.351103999999999985e+02
5.539999999999999858e+01 2.357580000000000098e+02
5.560000000000000142e+01 2.363920999999999992e+02
5.579999999999999716e+01 2.367613000000000056e+02
5.600000000000000000e+01 2.369627999999999872e+02
5.620000000000000284e+01 2.370858000000000061e+02
5.639999999999999858e+01 2.371545000000000130e+02
5.660000000000000142e+01 2.371894000000000062e+02
5.679999999999999716e+01 2.372039000000000044e+02
5.700000000000000000e+01 2.372056000000000040e+02
5.720000000000000284e+01 2.371995000000000005e+02
5.739999999999999858e+01 2.371889999999999930e+02
5.760000000000000142e+01 2.371760999999999910e+02
5.779999999999999716e+01 2.371623999999999910e+02
5.800000000000000000e+01 2.371490000000000009e+02
5.820000000000000284e+01 2.371370000000000005e+02
5.839999999999999858e+01 2.371271999999999878e+02
5.860000000000000142e+01 2.371199000000000012e+02
5.879999999999999716e+01 2.371144999999999925e+02
5.900000000000000000e+01 2.371100999999999885e+02
5.920000000000000284e+01 2.371059999999999945e+02
5.939999999999999858e+01 2.371014999999999873e+02
5.960000000000000142e+01 2.370963000000000136e+02
5.979999999999999716e+01 2.370902000000000100e+02
6.000000000000000000e+01 2.370838999999999999e+02
6.020000000000000284e+01 2.370784999999999911e+02
6.039999999999999858e+01 2.370749999999999886e+02
6.060000000000000142e+01 2.370740999999999872e+02
6.079999999999999716e+01 2.370754000000000019e+02
6.100000000000000000e+01 2.370784999999999911e+02
6.120000000000000284e+01 2.370833000000000084e+02
6.139999999999999858e+01 2.370900000000000034e+02
6.160000000000000142e+01 2.370987000000000080e+02
6.179999999999999716e+01 2.371092999999999904e+02
6.200000000000000000e+01 2.371223999999999990e+02
6.220000000000000284e+01 2.371380000000000052e+02
6.239999999999999858e+01 2.371563999999999908e+02
6.260000000000000142e+01 2.371766000000000076e+02
6.279999999999999716e+01 2.371951999999999998e+02
6.300000000000000000e+01 2.372062999999999988e+02
6.320000000000000284e+01 2.371997000000000071e+02
6.339999999999999858e+01 2.371616999999999962e+02
6.360000000000000142e+01 2.370740000000000123e+02
6.379999999999999716e+01 2.369017000000000053e+02
6.400000000000000000e+01 2.366118999999999915e+02
6.420000000000000284e+01 2.361495999999999924e+02
6.440000000000000568e+01 2.350584000000000060e+02
6.459999999999999432e+01 2.338262000000000000e+02
6.479999999999999716e+01 2.309826999999999941e+02
6.500000000000000000e+01 2.257877000000000010e+02
6.520000000000000284e+01 2.236710999999999956e+02
6.540000000000000568e+01 2.114604999999999961e+02
6.559999999999999432e+01 2.011431000000000040e+02
6.579999999999999716e+01 1.945073999999999899e+02
6.600000000000000000e+01 1.776449000000000069e+02
6.620000000000000284e+01 1.667853000000000065e+02
6.640000000000000568e+01 1.554301000000000101e+02
6.659999999999999432e+01 1.431083999999999889e+02
6.679999999999999716e+01 1.348783999999999992e+02
6.700000000000000000e+01 1.242969999999999970e+02
6.720000000000000284e+01 1.160433000000000021e+02
6.740000000000000568e+01 1.096371000000000038e+02
6.759999999999999432e+01 1.021594999999999942e+02
6.779999999999999716e+01 9.638555999999999813e+01
6.800000000000000000e+01 9.117888000000000659e+01
6.820000000000000284e+01 8.641213000000000477e+01
6.840000000000000568e+01 8.228683999999999799e+01
6.859999999999999432e+01 7.834139000000000408e+01
6.879999999999999716e+01 7.481522999999999968e+01
6.900000000000000000e+01 7.160289000000000215e+01
6.920000000000000284e+01 6.860742000000000473e+01
6.940000000000000568e+01 6.585291999999999746e+01
6.959999999999999432e+01 6.329104000000000241e+01
6.979999999999999716e+01 6.090073999999999899e+01
7.000000000000000000e+01 5.866933000000000220e+01
7.020000000000000284e+01 5.657365999999999673e+01
7.040000000000000568e+01 5.460741999999999763e+01
7.059999999999999432e+01 5.275750000000000028e+01
7.079999999999999716e+01 5.101380999999999943e+01
7.100000000000000000e+01 4.936845000000000283e+01
7.120000000000000284e+01 4.781372999999999962e+01
7.140000000000000568e+01 4.634427999999999770e+01
7.159999999999999432e+01 4.494939000000000107e+01
7.179999999999999716e+01 4.362592999999999677e+01
7.200000000000000000e+01 4.237069000000000329e+01
7.220000000000000284e+01 4.117817999999999756e+01
7.240000000000000568e+01 4.004462999999999795e+01
7.259999999999999432e+01 3.896524000000000143e+01
7.279999999999999716e+01 3.793545000000000300e+01
7.300000000000000000e+01 3.695391999999999655e+01
7.320000000000000284e+01 3.601782000000000039e+01
7.340000000000000568e+01 3.512422000000000111e+01
7.359999999999999432e+01 3.427107000000000170e+01
7.379999999999999716e+01 3.345524999999999949e+01
7.400000000000000000e+01 3.267522999999999911e+01
7.420000000000000284e+01 3.192761000000000138e+01
7.440000000000000568e+01 3.121286999999999878e+01
7.459999999999999432e+01 3.052935000000000088e+01
7.479999999999999716e+01 2.987593000000000032e+01
7.500000000000000000e+01 2.925227999999999895e+01
7.520000000000000284e+01 2.866147000000000133e+01
7.540000000000000568e+01 2.811489999999999867e+01
7.559999999999999432e+01 2.751982999999999890e+01
7.579999999999999716e+01 2.698055000000000092e+01
7.600000000000000000e+01 2.647207999999999828e+01
7.620000000000000284e+01 2.602399000000000129e+01
7.640000000000000568e+01 2.596397999999999939e+01
7.659999999999999432e+01 2.531654999999999944e+01
7.679999999999999716e+01 2.461928999999999945e+01
7.700000000000000000e+01 2.413418000000000063e+01
7.720000000000000284e+01 2.370329999999999870e+01
7.740000000000000568e+01 2.331712999999999880e+01
7.759999999999999432e+01 2.337744000000000000e+01
7.779999999999999716e+01 2.254442999999999842e+01
7.800000000000000000e+01 2.215103999999999829e+01
7.820000000000000284e+01 2.178981999999999886e+01
7.840000000000000568e+01 2.144688000000000017e+01
7.859999999999999432e+01 2.111798999999999893e+01
7.879999999999999716e+01 2.080286999999999864e+01
7.900000000000000000e+01 2.053454999999999941e+01
7.920000000000000284e+01 2.020055999999999941e+01
7.940000000000000568e+01 1.991263999999999967e+01
7.959999999999999432e+01 1.963588999999999984e+01
7.979999999999999716e+01 1.936865999999999843e+01
8.000000000000000000e+01 1.911032000000000153e+01
8.020000000000000284e+01 1.886161999999999850e+01
8.040000000000000568e+01 1.861749000000000009e+01
